# Wavenumber (cm^-1)  T
1.755301 0.999730
2.088659 0.999391
2.448026 0.999510
2.877333 0.999876
3.500971 0.999857
4.295309 0.999594
5.179751 0.999405
6.263314 0.999035
7.436913 0.995665
8.604290 0.990992
9.782141 0.985896
10.876080 0.979029
12.105660 0.971468
13.450087 0.965062
15.001721 0.956169
17.033673 0.947752
18.778332 0.936107
20.634979 0.923463
22.175240 0.910845
24.237223 0.892099
25.740310 0.878179
27.563446 0.860490
29.417311 0.844490
31.561452 0.825327
33.593882 0.805778
35.586917 0.785984
37.711314 0.766019
39.775560 0.745689
42.351181 0.724919
45.358776 0.702702
48.803063 0.679049
51.768602 0.664386
55.619559 0.653186
59.356974 0.648084
61.050722 0.648111
63.502968 0.650255
65.884342 0.659060
68.961766 0.674783
70.838739 0.686763
73.158663 0.704732
74.747337 0.721204
75.757729 0.732435
76.988244 0.751153
78.028928 0.766128
79.083679 0.783348
80.584326 0.803564
81.893239 0.823031
83.447199 0.845493
85.030645 0.864960
85.948926 0.873196
87.344975 0.881432
88.288249 0.886673
89.002384 0.889668
89.722295 0.888170
90.448029 0.884426
91.179634 0.876190
91.670655 0.867206
92.660644 0.845493
93.410145 0.826026
94.418919 0.799820
95.182643 0.770620
95.952544 0.734681
96.728673 0.694250
97.511080 0.653070
98.299815 0.607397
99.094930 0.557981
99.896476 0.511560
100.704506 0.459149
101.519072 0.409733
102.065773 0.375292
102.863095 0.346881
104.002515 0.319886
105.408362 0.292183
106.260976 0.270470
107.120486 0.244265
107.973579 0.217119
108.694254 0.195725
109.649735 0.165208
110.525759 0.142569
111.718056 0.116648
112.727841 0.095268
114.251632 0.081791
116.732657 0.067565
118.438575 0.057620
119.395883 0.046415
120.206062 0.036597
121.857507 0.028631
125.510767 0.023390
129.999421 0.019124
133.053726 0.031712
135.213295 0.041943
137.888545 0.052950
138.853220 0.038565
140.198979 0.029174
142.270581 0.022973
144.459067 0.029197
145.931074 0.043769
147.080727 0.063758
148.316020 0.088724
149.322442 0.102674
151.520045 0.120280
153.889189 0.099901
154.464169 0.088811
155.164539 0.073010
155.906965 0.056456
156.792921 0.038433
158.251958 0.030050
161.008161 0.024886
162.491317 0.017305
163.937795 0.008516
167.444301 0.012024
171.942873 0.016767
174.777256 0.023766
179.389562 0.026384
183.814177 0.030003
186.093664 0.038373
187.484667 0.048577
188.890518 0.059502
190.172264 0.069706
191.500462 0.079409
193.068480 0.086091
194.938543 0.098421
198.370472 0.108430
201.921344 0.120898
203.938664 0.109505
204.813479 0.094820
207.186246 0.087108
209.591439 0.094629
210.018546 0.107545
210.918198 0.122477
213.322136 0.130880
215.549596 0.139376
218.738399 0.132916
222.099289 0.125152
226.088053 0.117416
230.830143 0.105897
233.425818 0.092212
236.046584 0.066302
239.058379 0.085129
243.339018 0.068131
250.115836 0.056852
257.176803 0.061066
264.717928 0.067025
269.083268 0.021995
271.744786 0.063088
274.816519 0.084388
280.364415 0.041234
281.717289 0.064333
284.096528 0.083468
287.447846 0.090029
297.373310 0.097229
306.622632 0.087629
313.859125 0.079040
320.477620 0.068831
326.769113 0.061076
333.365809 0.057916
341.180334 0.061383
351.686103 0.064782
363.905719 0.069150
374.869856 0.072934
388.171835 0.064383
399.990028 0.056548
407.691127 0.053123
418.137070 0.059321
426.650041 0.064100
438.697290 0.069368
452.567962 0.062463
461.051142 0.054243
468.879670 0.044620
471.388267 0.014855
477.726952 0.035504
483.129776 0.005872
489.123969 0.045443
494.632887 0.053205
502.766217 0.058917
513.475433 0.062465
526.192096 0.061161
538.879444 0.054319
553.610631 0.053022
571.900223 0.056123
591.078497 0.054968
608.421125 0.050938
625.009851 0.049546
646.951418 0.052185
665.477740 0.048451
688.915471 0.046920
714.412793 0.048150
742.445445 0.046866
774.716799 0.046174
807.028151 0.045103
837.946155 0.043606
865.388363 0.042857
891.332505 0.043606
920.523082 0.044355
928.003821 0.044215
949.515882 0.043820
961.786669 0.043598
967.118952 0.043503
981.615159 0.043246
996.358967 0.042989
998.982310 0.042943
1004.513171 0.042848
1019.325760 0.042595
1033.094462 0.042364
1052.877817 0.042036
1073.820034 0.041696
1098.794755 0.041300
1128.653763 0.040837
1145.073839 0.040588
1161.706748 0.040339
1180.887957 0.040056
1208.271396 0.039660
1251.910333 0.039048
1297.747264 0.038427
1347.108018 0.037783
1375.870286 0.037419
1393.473482 0.037199
1413.852401 0.036949
1450.827301 0.036503
1459.876339 0.036396
1475.821204 0.036208
1498.346718 0.035947
1565.507352 0.035190
1628.684647 0.034507
1678.503262 0.033987
1724.361822 0.033522
1768.211569 0.033089
1814.453627 0.032643
1869.578577 0.032126
1944.269227 0.031450
2031.965853 0.030689
2111.387594 0.030027
2208.656402 0.029250
2295.895741 0.028581
2353.150913 0.028156
2431.317837 0.027592
2495.443580 0.027143
2586.830404 0.026522
2692.958525 0.025828
2758.336531 0.025414
2818.981515 0.025039
2838.477570 0.024920
2887.874602 0.024622
2930.129786 0.024371
2977.171521 0.024096
3020.553451 0.023847
3084.859957 0.023483
3169.996129 0.023013
3271.765162 0.022468
3374.017034 0.021937
3493.624170 0.021336
3643.417982 0.020611
3801.997545 0.019876
3946.698031 0.019231
4086.239046 0.018631
4272.469623 0.017862
4431.156535 0.017233
4633.762677 0.016461
4856.466085 0.015651
5104.001662 0.014793
5392.356237 0.013844
5684.600222 0.012933
5967.457667 0.012095
6221.082945 0.011377
6463.031159 0.010718
6737.719002 0.010000
